Wavelength (micron), Reflectance
3.4999999e-001,5.2233338e-002
3.5100001e-001,5.2236538e-002
3.5200000e-001,5.1908989e-002
3.5299999e-001,5.1553104e-002
3.5400000e-001,5.1140685e-002
3.5499999e-001,5.0657503e-002
3.5600001e-001,5.0144747e-002
3.5699999e-001,4.9657583e-002
3.5800001e-001,4.9242202e-002
3.5900000e-001,4.8908684e-002
3.6000001e-001,4.8657984e-002
3.6100000e-001,4.8483763e-002
3.6199999e-001,4.8349813e-002
3.6300001e-001,4.8212543e-002
3.6399999e-001,4.8035398e-002
3.6500001e-001,4.7809586e-002
3.6600000e-001,4.7533419e-002
3.6700001e-001,4.7214724e-002
3.6800000e-001,4.6899788e-002
3.6899999e-001,4.6644446e-002
3.7000000e-001,4.6486985e-002
3.7099999e-001,4.6395864e-002
3.7200001e-001,4.6322007e-002
3.7300000e-001,4.6224769e-002
3.7400001e-001,4.6097044e-002
3.7500000e-001,4.5940287e-002
3.7599999e-001,4.5762520e-002
3.7700000e-001,4.5598719e-002
3.7799999e-001,4.5490585e-002
3.7900001e-001,4.5461245e-002
3.8000000e-001,4.5460351e-002
3.8100001e-001,4.5419123e-002
3.8200000e-001,4.5291759e-002
3.8299999e-001,4.5125004e-002
3.8400000e-001,4.4988647e-002
3.8499999e-001,4.4932008e-002
3.8600001e-001,4.4922449e-002
3.8699999e-001,4.4906955e-002
3.8800001e-001,4.4845898e-002
3.8900000e-001,4.4753093e-002
3.8999999e-001,4.4655807e-002
3.9100000e-001,4.4575840e-002
3.9199999e-001,4.4513393e-002
3.9300001e-001,4.4463255e-002
3.9399999e-001,4.4420615e-002
3.9500001e-001,4.4382695e-002
3.9600000e-001,4.4347111e-002
3.9700001e-001,4.4312105e-002
3.9800000e-001,4.4278093e-002
3.9899999e-001,4.4246115e-002
4.0000001e-001,4.4215705e-002
4.0099999e-001,4.4180389e-002
4.0200001e-001,4.4132125e-002
4.0300000e-001,4.4071332e-002
4.0400001e-001,4.4031866e-002
4.0500000e-001,4.4055823e-002
4.0599999e-001,4.4168435e-002
4.0700001e-001,4.4326503e-002
4.0799999e-001,4.4469792e-002
4.0900001e-001,4.4556923e-002
4.1000000e-001,4.4621602e-002
4.1100001e-001,4.4716317e-002
4.1200000e-001,4.4879865e-002
4.1299999e-001,4.5095880e-002
4.1400000e-001,4.5334358e-002
4.1499999e-001,4.5572538e-002
4.1600001e-001,4.5817491e-002
4.1700000e-001,4.6083510e-002
4.1800001e-001,4.6381608e-002
4.1900000e-001,4.6709009e-002
4.1999999e-001,4.7059685e-002
4.2100000e-001,4.7428817e-002
4.2199999e-001,4.7817606e-002
4.2300001e-001,4.8228517e-002
4.2399999e-001,4.8661090e-002
4.2500001e-001,4.9102403e-002
4.2600000e-001,4.9536470e-002
4.2699999e-001,4.9951583e-002
4.2800000e-001,5.0352912e-002
4.2899999e-001,5.0749820e-002
4.3000001e-001,5.1148780e-002
4.3099999e-001,5.1544439e-002
4.3200001e-001,5.1928408e-002
4.3300000e-001,5.2294243e-002
4.3399999e-001,5.2642711e-002
4.3500000e-001,5.2976403e-002
4.3599999e-001,5.3297471e-002
4.3700001e-001,5.3605866e-002
4.3799999e-001,5.3901106e-002
4.3900001e-001,5.4182231e-002
4.4000000e-001,5.4446753e-002
4.4100001e-001,5.4691844e-002
4.4200000e-001,5.4917235e-002
4.4299999e-001,5.5133265e-002
4.4400001e-001,5.5352967e-002
4.4499999e-001,5.5585507e-002
4.4600001e-001,5.5825155e-002
4.4700000e-001,5.6062419e-002
4.4800001e-001,5.6289688e-002
4.4900000e-001,5.6506772e-002
4.4999999e-001,5.6715522e-002
4.5100001e-001,5.6917436e-002
4.5199999e-001,5.7113152e-002
4.5300001e-001,5.7302922e-002
4.5400000e-001,5.7485834e-002
4.5500001e-001,5.7655472e-002
4.5600000e-001,5.7804037e-002
4.5699999e-001,5.7926502e-002
4.5800000e-001,5.8028936e-002
4.5899999e-001,5.8120117e-002
4.6000001e-001,5.8205474e-002
4.6100000e-001,5.8276474e-002
4.6200001e-001,5.8321342e-002
4.6300000e-001,5.8333464e-002
4.6399999e-001,5.8327634e-002
4.6500000e-001,5.8323815e-002
4.6599999e-001,5.8336448e-002
4.6700001e-001,5.8357339e-002
4.6799999e-001,5.8372863e-002
4.6900001e-001,5.8372319e-002
4.7000000e-001,5.8357768e-002
4.7099999e-001,5.8334343e-002
4.7200000e-001,5.8307953e-002
4.7299999e-001,5.8287703e-002
4.7400001e-001,5.8283482e-002
4.7499999e-001,5.8300156e-002
4.7600001e-001,5.8322493e-002
4.7700000e-001,5.8330417e-002
4.7799999e-001,5.8311000e-002
4.7900000e-001,5.8280166e-002
4.7999999e-001,5.8260992e-002
4.8100001e-001,5.8270317e-002
4.8199999e-001,5.8299378e-002
4.8300001e-001,5.8333162e-002
4.8400000e-001,5.8359213e-002
4.8500001e-001,5.8376111e-002
4.8600000e-001,5.8384899e-002
4.8699999e-001,5.8389492e-002
4.8800001e-001,5.8404475e-002
4.8899999e-001,5.8447342e-002
4.9000001e-001,5.8530647e-002
4.9100000e-001,5.8648359e-002
4.9200001e-001,5.8789745e-002
4.9300000e-001,5.8947470e-002
4.9399999e-001,5.9128422e-002
4.9500000e-001,5.9342772e-002
4.9599999e-001,5.9598487e-002
4.9700001e-001,5.9894018e-002
4.9800000e-001,6.0225539e-002
4.9900001e-001,6.0591921e-002
5.0000000e-001,6.1002538e-002
5.0099999e-001,6.1469689e-002
5.0199997e-001,6.2002715e-002
5.0300002e-001,6.2600724e-002
5.0400001e-001,6.3259959e-002
5.0500000e-001,6.3979186e-002
5.0599998e-001,6.4766198e-002
5.0700003e-001,6.5631308e-002
5.0800002e-001,6.6583581e-002
5.0900000e-001,6.7628294e-002
5.0999999e-001,6.8769641e-002
5.1099998e-001,7.0010975e-002
5.1200002e-001,7.1351424e-002
5.1300001e-001,7.2789066e-002
5.1400000e-001,7.4321844e-002
5.1499999e-001,7.5947039e-002
5.1599997e-001,7.7661805e-002
5.1700002e-001,7.9462923e-002
5.1800001e-001,8.1344850e-002
5.1899999e-001,8.3301842e-002
5.1999998e-001,8.5325405e-002
5.2100003e-001,8.7396145e-002
5.2200001e-001,8.9492016e-002
5.2300000e-001,9.1591112e-002
5.2399999e-001,9.3671255e-002
5.2499998e-001,9.5710658e-002
5.2600002e-001,9.7688645e-002
5.2700001e-001,9.9589616e-002
5.2800000e-001,1.0139877e-001
5.2899998e-001,1.0310301e-001
5.2999997e-001,1.0469423e-001
5.3100002e-001,1.0616563e-001
5.3200001e-001,1.0751226e-001
5.3299999e-001,1.0873672e-001
5.3399998e-001,1.0984326e-001
5.3500003e-001,1.1083803e-001
5.3600001e-001,1.1173374e-001
5.3700000e-001,1.1254485e-001
5.3799999e-001,1.1328400e-001
5.3899997e-001,1.1395746e-001
5.4000002e-001,1.1456984e-001
5.4100001e-001,1.1512820e-001
5.4200000e-001,1.1565014e-001
5.4299998e-001,1.1615588e-001
5.4400003e-001,1.1666202e-001
5.4500002e-001,1.1717135e-001
5.4600000e-001,1.1768313e-001
5.4699999e-001,1.1819574e-001
5.4799998e-001,1.1870359e-001
5.4900002e-001,1.1920036e-001
5.5000001e-001,1.1967827e-001
5.5100000e-001,1.2012441e-001
5.5199999e-001,1.2052451e-001
5.5299997e-001,1.2086346e-001
5.5400002e-001,1.2112284e-001
5.5500001e-001,1.2128338e-001
5.5599999e-001,1.2132831e-001
5.5699998e-001,1.2125077e-001
5.5800003e-001,1.2104639e-001
5.5900002e-001,1.2071224e-001
5.6000000e-001,1.2025135e-001
5.6099999e-001,1.1966819e-001
5.6199998e-001,1.1896738e-001
5.6300002e-001,1.1815427e-001
5.6400001e-001,1.1723456e-001
5.6500000e-001,1.1621375e-001
5.6599998e-001,1.1509786e-001
5.6699997e-001,1.1389279e-001
5.6800002e-001,1.1260628e-001
5.6900001e-001,1.1125182e-001
5.6999999e-001,1.0984460e-001
5.7099998e-001,1.0840089e-001
5.7200003e-001,1.0694208e-001
5.7300001e-001,1.0549060e-001
5.7400000e-001,1.0406758e-001
5.7499999e-001,1.0268746e-001
5.7599998e-001,1.0136313e-001
5.7700002e-001,1.0010569e-001
5.7800001e-001,9.8919198e-002
5.7900000e-001,9.7805724e-002
5.7999998e-001,9.6765943e-002
5.8099997e-001,9.5794484e-002
5.8200002e-001,9.4884597e-002
5.8300000e-001,9.4029799e-002
5.8399999e-001,9.3225621e-002
5.8499998e-001,9.2467770e-002
5.8600003e-001,9.1752976e-002
5.8700001e-001,9.1081351e-002
5.8800000e-001,9.0453990e-002
5.8899999e-001,8.9870594e-002
5.8999997e-001,8.9325540e-002
5.9100002e-001,8.8812076e-002
5.9200001e-001,8.8324748e-002
5.9299999e-001,8.7863922e-002
5.9399998e-001,8.7431565e-002
5.9500003e-001,8.7028787e-002
5.9600002e-001,8.6653620e-002
5.9700000e-001,8.6303353e-002
5.9799999e-001,8.5974097e-002
5.9899998e-001,8.5656844e-002
6.0000002e-001,8.5341379e-002
6.0100001e-001,8.5017435e-002
6.0200000e-001,8.4674492e-002
6.0299999e-001,8.4301919e-002
6.0399997e-001,8.3891697e-002
6.0500002e-001,8.3445743e-002
6.0600001e-001,8.2968466e-002
6.0699999e-001,8.2462899e-002
6.0799998e-001,8.1926875e-002
6.0900003e-001,8.1356689e-002
6.1000001e-001,8.0751285e-002
6.1100000e-001,8.0119543e-002
6.1199999e-001,7.9472885e-002
6.1299998e-001,7.8821860e-002
6.1400002e-001,7.8173839e-002
6.1500001e-001,7.7535264e-002
6.1600000e-001,7.6912470e-002
6.1699998e-001,7.6311156e-002
6.1799997e-001,7.5737089e-002
6.1900002e-001,7.5196423e-002
6.2000000e-001,7.4697971e-002
6.2099999e-001,7.4251100e-002
6.2199998e-001,7.3861994e-002
6.2300003e-001,7.3523864e-002
6.2400001e-001,7.3226742e-002
6.2500000e-001,7.2962679e-002
6.2599999e-001,7.2732091e-002
6.2699997e-001,7.2537415e-002
6.2800002e-001,7.2379410e-002
6.2900001e-001,7.2251081e-002
6.3000000e-001,7.2143525e-002
6.3099998e-001,7.2046846e-002
6.3200003e-001,7.1945727e-002
6.3300002e-001,7.1823642e-002
6.3400000e-001,7.1665466e-002
6.3499999e-001,7.1460627e-002
6.3599998e-001,7.1200036e-002
6.3700002e-001,7.0874564e-002
6.3800001e-001,7.0476465e-002
6.3900000e-001,6.9997899e-002
6.3999999e-001,6.9435313e-002
6.4099997e-001,6.8800971e-002
6.4200002e-001,6.8111375e-002
6.4300001e-001,6.7381747e-002
6.4399999e-001,6.6623420e-002
6.4499998e-001,6.5846831e-002
6.4600003e-001,6.5063141e-002
6.4700001e-001,6.4287707e-002
6.4800000e-001,6.3536778e-002
6.4899999e-001,6.2824726e-002
6.4999998e-001,6.2157664e-002
6.5100002e-001,6.1539680e-002
6.5200001e-001,6.0971983e-002
6.5300000e-001,6.0443051e-002
6.5399998e-001,5.9938416e-002
6.5499997e-001,5.9443794e-002
6.5600002e-001,5.8945332e-002
6.5700001e-001,5.8429383e-002
6.5799999e-001,5.7884410e-002
6.5899998e-001,5.7307318e-002
6.6000003e-001,5.6696955e-002
6.6100001e-001,5.6054838e-002
6.6200000e-001,5.5392765e-002
6.6299999e-001,5.4725077e-002
6.6399997e-001,5.4066624e-002
6.6500002e-001,5.3433593e-002
6.6600001e-001,5.2842613e-002
6.6700000e-001,5.2307647e-002
6.6799998e-001,5.1832292e-002
6.6900003e-001,5.1417414e-002
6.7000002e-001,5.1063493e-002
6.7100000e-001,5.0769318e-002
6.7199999e-001,5.0533250e-002
6.7299998e-001,5.0353009e-002
6.7400002e-001,5.0223764e-002
6.7500001e-001,5.0140020e-002
6.7600000e-001,5.0098311e-002
6.7699999e-001,5.0103240e-002
6.7799997e-001,5.0161470e-002
6.7900002e-001,5.0280042e-002
6.8000001e-001,5.0467670e-002
6.8099999e-001,5.0733455e-002
6.8199998e-001,5.1089630e-002
6.8300003e-001,5.1560834e-002
6.8400002e-001,5.2174587e-002
6.8500000e-001,5.2960519e-002
6.8599999e-001,5.3955790e-002
6.8699998e-001,5.5199530e-002
6.8800002e-001,5.6731947e-002
6.8900001e-001,5.8598682e-002
6.9000000e-001,6.0846779e-002
6.9099998e-001,6.3518912e-002
6.9199997e-001,6.6641912e-002
6.9300002e-001,7.0238970e-002
6.9400001e-001,7.4328855e-002
6.9499999e-001,7.8916535e-002
6.9599998e-001,8.4003069e-002
6.9700003e-001,8.9584924e-002
6.9800001e-001,9.5637478e-002
6.9900000e-001,1.0213219e-001
6.9999999e-001,1.0903934e-001
7.0099998e-001,1.1633009e-001
7.0200002e-001,1.2397417e-001
7.0300001e-001,1.3194054e-001
7.0400000e-001,1.4019011e-001
7.0499998e-001,1.4868364e-001
7.0599997e-001,1.5738676e-001
7.0700002e-001,1.6628702e-001
7.0800000e-001,1.7537579e-001
7.0899999e-001,1.8464710e-001
7.0999998e-001,1.9409889e-001
7.1100003e-001,2.0373023e-001
7.1200001e-001,2.1354018e-001
7.1300000e-001,2.2352812e-001
7.1399999e-001,2.3369165e-001
7.1499997e-001,2.4402878e-001
7.1600002e-001,2.5453156e-001
7.1700001e-001,2.6519135e-001
7.1799999e-001,2.7599919e-001
7.1899998e-001,2.8695476e-001
7.2000003e-001,2.9805875e-001
7.2100002e-001,3.0930611e-001
7.2200000e-001,3.2066825e-001
7.2299999e-001,3.3211130e-001
7.2399998e-001,3.4359834e-001
7.2500002e-001,3.5508966e-001
7.2600001e-001,3.6654380e-001
7.2700000e-001,3.7792042e-001
7.2799999e-001,3.8917935e-001
7.2899997e-001,4.0028298e-001
7.3000002e-001,4.1119611e-001
7.3100001e-001,4.2189613e-001
7.3199999e-001,4.3236321e-001
7.3299998e-001,4.4257763e-001
7.3400003e-001,4.5251527e-001
7.3500001e-001,4.6215284e-001
7.3600000e-001,4.7147131e-001
7.3699999e-001,4.8047051e-001
7.3799998e-001,4.8915339e-001
7.3900002e-001,4.9752197e-001
7.4000001e-001,5.0556755e-001
7.4100000e-001,5.1327771e-001
7.4199998e-001,5.2064264e-001
7.4299997e-001,5.2765918e-001
7.4400002e-001,5.3432441e-001
7.4500000e-001,5.4063845e-001
7.4599999e-001,5.4660821e-001
7.4699998e-001,5.5224270e-001
7.4800003e-001,5.5754918e-001
7.4900001e-001,5.6253028e-001
7.5000000e-001,5.6718719e-001
7.5099999e-001,5.7152385e-001
7.5199997e-001,5.7555383e-001
7.5300002e-001,5.7929403e-001
7.5400001e-001,5.8275819e-001
7.5500000e-001,5.8595979e-001
7.5599998e-001,5.8890861e-001
7.5700003e-001,5.9161800e-001
7.5800002e-001,5.9411007e-001
7.5900000e-001,5.9641016e-001
7.5999999e-001,5.9853965e-001
7.6099998e-001,6.0050517e-001
7.6200002e-001,6.0230982e-001
7.6300001e-001,6.0395789e-001
7.6400000e-001,6.0545737e-001
7.6499999e-001,6.0681772e-001
7.6599997e-001,6.0805053e-001
7.6700002e-001,6.0917711e-001
7.6800001e-001,6.1022091e-001
7.6899999e-001,6.1120057e-001
7.6999998e-001,6.1211401e-001
7.7100003e-001,6.1295390e-001
7.7200001e-001,6.1371803e-001
7.7300000e-001,6.1442286e-001
7.7399999e-001,6.1508989e-001
7.7499998e-001,6.1573523e-001
7.7600002e-001,6.1635369e-001
7.7700001e-001,6.1693484e-001
7.7800000e-001,6.1747015e-001
7.7899998e-001,6.1795872e-001
7.7999997e-001,6.1840212e-001
7.8100002e-001,6.1880457e-001
7.8200001e-001,6.1918348e-001
7.8299999e-001,6.1955953e-001
7.8399998e-001,6.1994654e-001
7.8500003e-001,6.2033296e-001
7.8600001e-001,6.2070054e-001
7.8700000e-001,6.2103677e-001
7.8799999e-001,6.2135178e-001
7.8899997e-001,6.2166160e-001
7.9000002e-001,6.2197745e-001
7.9100001e-001,6.2229323e-001
7.9200000e-001,6.2259823e-001
7.9299998e-001,6.2288493e-001
7.9400003e-001,6.2315857e-001
7.9500002e-001,6.2342572e-001
7.9600000e-001,6.2369251e-001
7.9699999e-001,6.2395614e-001
7.9799998e-001,6.2421137e-001
7.9900002e-001,6.2445462e-001
8.0000001e-001,6.2468988e-001
8.0100000e-001,6.2492275e-001
8.0199999e-001,6.2515700e-001
8.0299997e-001,6.2538975e-001
8.0400002e-001,6.2561619e-001
8.0500001e-001,6.2583309e-001
8.0599999e-001,6.2604171e-001
8.0699998e-001,6.2624514e-001
8.0800003e-001,6.2644523e-001
8.0900002e-001,6.2663972e-001
8.1000000e-001,6.2682557e-001
8.1099999e-001,6.2700194e-001
8.1199998e-001,6.2717694e-001
8.1300002e-001,6.2736118e-001
8.1400001e-001,6.2756217e-001
8.1500000e-001,6.2777585e-001
8.1599998e-001,6.2799519e-001
8.1699997e-001,6.2821496e-001
8.1800002e-001,6.2843716e-001
8.1900001e-001,6.2866509e-001
8.1999999e-001,6.2890089e-001
8.2099998e-001,6.2913901e-001
8.2200003e-001,6.2937242e-001
8.2300001e-001,6.2959731e-001
8.2400000e-001,6.2982255e-001
8.2499999e-001,6.3006049e-001
8.2599998e-001,6.3031763e-001
8.2700002e-001,6.3057709e-001
8.2800001e-001,6.3081604e-001
8.2900000e-001,6.3101840e-001
8.2999998e-001,6.3119400e-001
8.3099997e-001,6.3135940e-001
8.3200002e-001,6.3152891e-001
8.3300000e-001,6.3170850e-001
8.3399999e-001,6.3190168e-001
8.3499998e-001,6.3211286e-001
8.3600003e-001,6.3234854e-001
8.3700001e-001,6.3261592e-001
8.3800000e-001,6.3291937e-001
8.3899999e-001,6.3325173e-001
8.3999997e-001,6.3360316e-001
8.4100002e-001,6.3396531e-001
8.4200001e-001,6.3433588e-001
8.4299999e-001,6.3471407e-001
8.4399998e-001,6.3509953e-001
8.4500003e-001,6.3549310e-001
8.4600002e-001,6.3589644e-001
8.4700000e-001,6.3630915e-001
8.4799999e-001,6.3672376e-001
8.4899998e-001,6.3713044e-001
8.5000002e-001,6.3752300e-001
8.5100001e-001,6.3790590e-001
8.5200000e-001,6.3828653e-001
8.5299999e-001,6.3867015e-001
8.5399997e-001,6.3905275e-001
8.5500002e-001,6.3942820e-001
8.5600001e-001,6.3979208e-001
8.5699999e-001,6.4014775e-001
8.5799998e-001,6.4050001e-001
8.5900003e-001,6.4085352e-001
8.6000001e-001,6.4120489e-001
8.6100000e-001,6.4154947e-001
8.6199999e-001,6.4188337e-001
8.6299998e-001,6.4220506e-001
8.6400002e-001,6.4251351e-001
8.6500001e-001,6.4280772e-001
8.6600000e-001,6.4308625e-001
8.6699998e-001,6.4334726e-001
8.6799997e-001,6.4359224e-001
8.6900002e-001,6.4383447e-001
8.7000000e-001,6.4409053e-001
8.7099999e-001,6.4437115e-001
8.7199998e-001,6.4466596e-001
8.7300003e-001,6.4495909e-001
8.7400001e-001,6.4523768e-001
8.7500000e-001,6.4550263e-001
8.7599999e-001,6.4575791e-001
8.7699997e-001,6.4600790e-001
8.7800002e-001,6.4625776e-001
8.7900001e-001,6.4651275e-001
8.8000000e-001,6.4677519e-001
8.8099998e-001,6.4703453e-001
8.8200003e-001,6.4727736e-001
8.8300002e-001,6.4749306e-001
8.8400000e-001,6.4768255e-001
8.8499999e-001,6.4784974e-001
8.8599998e-001,6.4799875e-001
8.8700002e-001,6.4813423e-001
8.8800001e-001,6.4826113e-001
8.8900000e-001,6.4838284e-001
8.8999999e-001,6.4849645e-001
8.9099997e-001,6.4859748e-001
8.9200002e-001,6.4868230e-001
8.9300001e-001,6.4875019e-001
8.9399999e-001,6.4880133e-001
8.9499998e-001,6.4883757e-001
8.9600003e-001,6.4886838e-001
8.9700001e-001,6.4890480e-001
8.9800000e-001,6.4895326e-001
8.9899999e-001,6.4900112e-001
8.9999998e-001,6.4903146e-001
9.0100002e-001,6.4903134e-001
9.0200001e-001,6.4901292e-001
9.0300000e-001,6.4899349e-001
9.0399998e-001,6.4898580e-001
9.0499997e-001,6.4898366e-001
9.0600002e-001,6.4897579e-001
9.0700001e-001,6.4895421e-001
9.0799999e-001,6.4892197e-001
9.0899998e-001,6.4888495e-001
9.1000003e-001,6.4884752e-001
9.1100001e-001,6.4880687e-001
9.1200000e-001,6.4875853e-001
9.1299999e-001,6.4869922e-001
9.1399997e-001,6.4863127e-001
9.1500002e-001,6.4855826e-001
9.1600001e-001,6.4848220e-001
9.1700000e-001,6.4839959e-001
9.1799998e-001,6.4830554e-001
9.1900003e-001,6.4819562e-001
9.2000002e-001,6.4806813e-001
9.2100000e-001,6.4792216e-001
9.2199999e-001,6.4775455e-001
9.2299998e-001,6.4755344e-001
9.2400002e-001,6.4730531e-001
9.2500001e-001,6.4700127e-001
9.2600000e-001,6.4665312e-001
9.2699999e-001,6.4627790e-001
9.2799997e-001,6.4588636e-001
9.2900002e-001,6.4546365e-001
9.3000001e-001,6.4498907e-001
9.3099999e-001,6.4444733e-001
9.3199998e-001,6.4384574e-001
9.3300003e-001,6.4319772e-001
9.3400002e-001,6.4251357e-001
9.3500000e-001,6.4179236e-001
9.3599999e-001,6.4103025e-001
9.3699998e-001,6.4022613e-001
9.3800002e-001,6.3939053e-001
9.3900001e-001,6.3853639e-001
9.4000000e-001,6.3767099e-001
9.4099998e-001,6.3677800e-001
9.4199997e-001,6.3583511e-001
9.4300002e-001,6.3482404e-001
9.4400001e-001,6.3374227e-001
9.4499999e-001,6.3259119e-001
9.4599998e-001,6.3137186e-001
9.4700003e-001,6.3008386e-001
9.4800001e-001,6.2872696e-001
9.4900000e-001,6.2729740e-001
9.4999999e-001,6.2577915e-001
9.5099998e-001,6.2415308e-001
9.5200002e-001,6.2239856e-001
9.5300001e-001,6.2049395e-001
9.5400000e-001,6.1841506e-001
9.5499998e-001,6.1615157e-001
9.5599997e-001,6.1374575e-001
9.5700002e-001,6.1125314e-001
9.5800000e-001,6.0872436e-001
9.5899999e-001,6.0618782e-001
9.5999998e-001,6.0366726e-001
9.6100003e-001,6.0119027e-001
9.6200001e-001,5.9880275e-001
9.6300000e-001,5.9655416e-001
9.6399999e-001,5.9448999e-001
9.6499997e-001,5.9263003e-001
9.6600002e-001,5.9098887e-001
9.6700001e-001,5.8956963e-001
9.6799999e-001,5.8832979e-001
9.6899998e-001,5.8721489e-001
9.7000003e-001,5.8618295e-001
9.7100002e-001,5.8524024e-001
9.7200000e-001,5.8440506e-001
9.7299999e-001,5.8368713e-001
9.7399998e-001,5.8306158e-001
9.7500002e-001,5.8249480e-001
9.7600001e-001,5.8195949e-001
9.7700000e-001,5.8145815e-001
9.7799999e-001,5.8099854e-001
9.7899997e-001,5.8059090e-001
9.8000002e-001,5.8025324e-001
9.8100001e-001,5.8000535e-001
9.8199999e-001,5.7986027e-001
9.8299998e-001,5.7980418e-001
9.8400003e-001,5.7981628e-001
9.8500001e-001,5.7988000e-001
9.8600000e-001,5.7999235e-001
9.8699999e-001,5.8015543e-001
9.8799998e-001,5.8037132e-001
9.8900002e-001,5.8064383e-001
9.9000001e-001,5.8097750e-001
9.9100000e-001,5.8137482e-001
9.9199998e-001,5.8183217e-001
9.9299997e-001,5.8234388e-001
9.9400002e-001,5.8290583e-001
9.9500000e-001,5.8351874e-001
9.9599999e-001,5.8418304e-001
9.9699998e-001,5.8489597e-001
9.9800003e-001,5.8563536e-001
9.9900001e-001,5.8637458e-001
1.0000000e+000,5.8710194e-001
1.0010000e+000,5.8786249e-001
1.0020000e+000,5.8871734e-001
1.0030000e+000,5.8970815e-001
1.0039999e+000,5.9080017e-001
1.0050000e+000,5.9193796e-001
1.0060000e+000,5.9308130e-001
1.0070000e+000,5.9424442e-001
1.0080000e+000,5.9545356e-001
1.0089999e+000,5.9671211e-001
1.0100000e+000,5.9792596e-001
1.0110000e+000,5.9897447e-001
1.0120000e+000,5.9977829e-001
1.0130000e+000,6.0041595e-001
1.0140001e+000,6.0100353e-001
